Nr;TotalArea;Area;DeltaArea;DeltaMolecules;Pressure;Tension;Mode;Time;Temp;Potential;Radioactivity;area_mols
1;16429.1;2396.26;-5086.33;-2.11606;1.12008;70.9799;2;0.43;22.7154;-2499.43;0.0;2396.26
2;16352.1;2385.02;-12790.8;-5.32136;1.12336;70.9766;2;1.07;22.7357;-2499.57;0.0;2385.02
3;16283.3;2374.98;-19672.4;-8.18428;1.1268;70.9732;2;1.64;22.7303;-2499.55;0.0;2374.98
4;16219.3;2365.65;-26067.8;-10.845;1.12744;70.9726;2;2.17;22.7211;-2499.55;0.0;2365.65
5;16159.9;2356.98;-32014.5;-13.319;1.12576;70.9742;2;2.66;22.7284;-2499.54;0.0;2356.98
6;16103.0;2348.69;-37699.2;-15.684;1.12782;70.9722;2;3.13;22.738;-2499.49;0.0;2348.69
7;16052.5;2341.33;-42748.1;-17.7845;1.1348;70.9652;2;3.55;22.736;-2499.52;0.0;2341.33
8;16005.4;2334.45;-47460.5;-19.745;1.14458;70.9554;2;3.94;22.7357;-2499.56;0.0;2334.45
9;15959.4;2327.74;-52060.7;-21.6588;1.15811;70.9419;2;4.32;22.7441;-2499.45;0.0;2327.74
10;15918.3;2321.74;-56174.8;-23.3704;1.17012;70.9299;2;4.67;22.7349;-2499.48;0.0;2321.74
11;15878.2;2315.91;-60176.7;-25.0353;1.18042;70.9196;2;4.99;22.72;-2499.54;0.0;2315.91
12;15839.7;2310.29;-64028.8;-26.6379;1.18987;70.9101;2;5.31;22.7368;-2499.4;0.0;2310.29
13;15803.4;2305.0;-67656.6;-28.1472;1.19811;70.9019;2;5.61;22.7276;-2499.38;0.0;2305.0
14;15769.4;2300.03;-71060.1;-29.5631;1.19941;70.9006;2;5.89;22.7422;-2499.38;0.0;2300.03
15;15739.1;2295.61;-74089.4;-30.8234;1.20614;70.8939;2;6.14;22.7242;-2499.5;0.0;2295.61
16;15710.3;2291.41;-76969.2;-32.0215;1.21641;70.8836;2;6.38;22.728;-2499.51;0.0;2291.41
17;15682.3;2287.32;-79774.2;-33.1884;1.23029;70.8697;2;6.61;22.7234;-2499.49;0.0;2287.32
18;15653.5;2283.12;-82654.1;-34.3865;1.24407;70.8559;2;6.85;22.7376;-2499.51;0.0;2283.12
19;15626.5;2279.19;-85346.8;-35.5068;1.25678;70.8432;2;7.07;22.7403;-2499.42;0.0;2279.19
20;15598.9;2275.16;-88114.4;-36.6582;1.26842;70.8316;2;7.3;22.7261;-2499.41;0.0;2275.16
21;15572.3;2271.28;-90769.7;-37.7629;1.27776;70.8222;2;7.52;22.7341;-2499.52;0.0;2271.28
22;15543.5;2267.08;-93649.6;-38.961;1.28426;70.8157;2;7.76;22.7295;-2499.49;0.0;2267.08
23;15516.9;2263.21;-96305.1;-40.0658;1.28976;70.8102;2;7.98;22.7242;-2499.49;0.0;2263.21
24;15490.4;2259.34;-98960.5;-41.1705;1.29705;70.803;2;8.2;22.7299;-2499.49;0.0;2259.34
25;15462.7;2255.3;-101728.0;-42.3219;1.29825;70.8017;2;8.43;22.7372;-2499.49;0.0;2255.3
26;15433.5;2251.05;-104645.0;-43.5355;1.29789;70.8021;2;8.67;22.7311;-2499.51;0.0;2251.05
27;15407.0;2247.17;-107301.0;-44.6402;1.30049;70.7995;2;8.89;22.7223;-2499.44;0.0;2247.17
28;15379.3;2243.14;-110068.0;-45.7916;1.30324;70.7968;2;9.12;22.723;-2499.42;0.0;2243.14
29;15352.8;2239.26;-112724.0;-46.8964;1.31175;70.7882;2;9.34;22.7162;-2499.45;0.0;2239.26
30;15326.2;2235.39;-115379.0;-48.0011;1.32678;70.7732;2;9.56;22.7249;-2499.45;0.0;2235.39
31;15299.7;2231.52;-118034.0;-49.1058;1.34532;70.7547;2;9.78;22.7284;-2499.45;0.0;2231.52
32;15273.1;2227.64;-120690.0;-50.2105;1.36398;70.736;2;10.0;22.7192;-2499.41;0.0;2227.64
33;15243.9;2223.39;-123607.0;-51.4242;1.37999;70.72;2;10.24;22.7188;-2499.55;0.0;2223.39
34;15216.3;2219.35;-126375.0;-52.5756;1.39238;70.7076;2;10.47;22.7318;-2499.55;0.0;2219.35
35;15187.5;2215.15;-129254.0;-53.7736;1.4047;70.6953;2;10.71;22.7162;-2499.53;0.0;2215.15
36;15160.9;2211.28;-131910.0;-54.8784;1.41593;70.6841;2;10.93;22.7215;-2499.6;0.0;2211.28
37;15134.3;2207.41;-134565.0;-55.9831;1.42571;70.6743;2;11.15;22.7204;-2499.45;0.0;2207.41
38;15107.8;2203.53;-137221.0;-57.0878;1.42821;70.6718;2;11.37;22.7326;-2499.46;0.0;2203.53
39;15081.2;2199.66;-139876.0;-58.1925;1.42697;70.673;2;11.59;22.7349;-2499.52;0.0;2199.66
40;15054.7;2195.79;-142531.0;-59.2973;1.429;70.671;2;11.81;22.7322;-2499.39;0.0;2195.79
41;15028.1;2191.91;-145187.0;-60.402;1.43395;70.666;2;12.03;22.7307;-2499.39;0.0;2191.91
42;15000.5;2187.88;-147954.0;-61.5534;1.44176;70.6582;2;12.26;22.7368;-2499.37;0.0;2187.88
43;14973.9;2184.0;-150610.0;-62.6582;1.45183;70.6482;2;12.48;22.7338;-2499.44;0.0;2184.0
44;14944.7;2179.75;-153527.0;-63.8717;1.46486;70.6351;2;12.72;22.7219;-2499.42;0.0;2179.75
45;14918.2;2175.88;-156182.0;-64.9765;1.47902;70.621;2;12.94;22.7276;-2499.47;0.0;2175.88
46;14890.5;2171.84;-158950.0;-66.1279;1.50462;70.5954;2;13.17;22.723;-2499.54;0.0;2171.84
47;14861.7;2167.64;-161830.0;-67.326;1.52039;70.5796;2;13.41;22.7456;-2499.5;0.0;2167.64
48;14835.1;2163.77;-164485.0;-68.4307;1.5276;70.5724;2;13.63;22.7475;-2499.52;0.0;2163.77
49;14807.5;2159.73;-167253.0;-69.5821;1.52914;70.5709;2;13.86;22.7418;-2499.45;0.0;2159.73
50;14780.5;2155.8;-169946.0;-70.7024;1.53668;70.5633;2;14.08;22.7242;-2499.4;0.0;2155.8
51;14751.7;2151.6;-172825.0;-71.9005;1.55725;70.5427;2;14.32;22.7311;-2499.36;0.0;2151.6
52;14724.1;2147.57;-175593.0;-73.0519;1.57857;70.5214;2;14.55;22.7215;-2499.43;0.0;2147.57
53;14697.5;2143.69;-178248.0;-74.1566;1.59025;70.5098;2;14.77;22.7338;-2499.49;0.0;2143.69
54;14671.0;2139.82;-180904.0;-75.2613;1.60141;70.4986;2;14.99;22.733;-2499.46;0.0;2139.82
55;14641.8;2135.56;-183821.0;-76.475;1.61405;70.4859;2;15.23;22.7318;-2499.5;0.0;2135.56
56;14613.0;2131.36;-186701.0;-77.673;1.63293;70.4671;2;15.47;22.7429;-2499.54;0.0;2131.36
57;14585.3;2127.33;-189468.0;-78.8244;1.65551;70.4445;2;15.7;22.7403;-2499.47;0.0;2127.33
58;14556.1;2123.07;-192386.0;-80.0381;1.67275;70.4272;2;15.94;22.7445;-2499.38;0.0;2123.07
59;14529.6;2119.2;-195041.0;-81.1428;1.69122;70.4088;2;16.16;22.7468;-2499.33;0.0;2119.2
60;14503.0;2115.33;-197696.0;-82.2475;1.69858;70.4014;2;16.38;22.7448;-2499.27;0.0;2115.33
61;14476.5;2111.45;-200352.0;-83.3522;1.70579;70.3942;2;16.6;22.746;-2499.37;0.0;2111.45
62;14449.9;2107.58;-203007.0;-84.457;1.70901;70.391;2;16.82;22.7487;-2499.42;0.0;2107.58
63;14422.3;2103.54;-205775.0;-85.6084;1.71713;70.3829;2;17.05;22.741;-2499.39;0.0;2103.54
64;14395.7;2099.67;-208430.0;-86.7131;1.72703;70.373;2;17.27;22.7288;-2499.48;0.0;2099.67
65;14369.1;2095.8;-211086.0;-87.8178;1.73853;70.3615;2;17.49;22.7376;-2499.31;0.0;2095.8
66;14342.2;2091.87;-213778.0;-88.9381;1.76077;70.3392;2;17.71;22.7303;-2499.47;0.0;2091.87
67;14313.4;2087.67;-216658.0;-90.1362;1.81124;70.2888;2;17.95;22.733;-2499.51;0.0;2087.67
68;14286.9;2083.8;-219314.0;-91.2409;1.82371;70.2763;2;18.17;22.7372;-2499.37;0.0;2083.8
69;14258.8;2079.71;-222119.0;-92.4079;1.79741;70.3026;2;18.4;22.7452;-2499.59;0.0;2079.71
70;14230.0;2075.51;-224998.0;-93.606;1.833;70.267;2;18.64;22.7494;-2499.42;0.0;2075.51
71;14202.0;2071.41;-227804.0;-94.773;1.83582;70.2642;2;18.87;22.7368;-2499.45;0.0;2071.41
72;14175.4;2067.54;-230459.0;-95.8777;1.84671;70.2533;2;19.09;22.7544;-2499.37;0.0;2067.54
73;14148.9;2063.67;-233114.0;-96.9824;1.84267;70.2573;2;19.31;22.741;-2499.48;0.0;2063.67
74;14119.7;2059.41;-236031.0;-98.196;1.8425;70.2575;2;19.55;22.7368;-2499.49;0.0;2059.41
75;14093.1;2055.54;-238687.0;-99.3007;1.87764;70.2224;2;19.77;22.7441;-2499.47;0.0;2055.54
76;14066.6;2051.67;-241342.0;-100.405;1.90089;70.1991;2;19.99;22.7425;-2499.52;0.0;2051.67
77;14040.0;2047.79;-243998.0;-101.51;1.9102;70.1898;2;20.21;22.7437;-2499.49;0.0;2047.8
78;14013.5;2043.92;-246653.0;-102.615;1.92528;70.1747;2;20.43;22.7448;-2499.52;0.0;2043.92
79;13986.9;2040.05;-249308.0;-103.72;1.95565;70.1443;2;20.65;22.7349;-2499.59;0.0;2040.05
80;13959.2;2036.01;-252076.0;-104.871;1.95273;70.1473;2;20.88;22.733;-2499.57;0.0;2036.01
81;13932.7;2032.14;-254731.0;-105.976;1.98602;70.114;2;21.1;22.7464;-2499.49;0.0;2032.14
82;13903.5;2027.88;-257649.0;-107.189;1.98865;70.1113;2;21.34;22.741;-2499.5;0.0;2027.88
83;13875.8;2023.85;-260416.0;-108.341;2.02026;70.0797;2;21.57;22.7555;-2499.39;0.0;2023.85
84;13846.7;2019.59;-263333.0;-109.554;2.02386;70.0761;2;21.81;22.7563;-2499.38;0.0;2019.59
85;13819.0;2015.56;-266101.0;-110.706;2.04562;70.0544;2;22.04;22.7563;-2499.43;0.0;2015.56
86;13792.4;2011.68;-268756.0;-111.811;2.06233;70.0377;2;22.26;22.7555;-2499.36;0.0;2011.68
87;13765.5;2007.76;-271449.0;-112.931;2.07844;70.0216;2;22.48;22.759;-2499.29;0.0;2007.76
88;13736.7;2003.56;-274329.0;-114.129;2.10672;69.9933;2;22.72;22.7559;-2499.4;0.0;2003.56
89;13709.0;1999.52;-277097.0;-115.28;2.10647;69.9935;2;22.95;22.7567;-2499.37;0.0;1999.52
90;13679.9;1995.26;-280014.0;-116.494;2.14031;69.9597;2;23.19;22.7624;-2499.36;0.0;1995.26
91;13653.3;1991.39;-282669.0;-117.599;2.14307;69.9569;2;23.41;22.7448;-2499.32;0.0;1991.39
92;13625.6;1987.35;-285437.0;-118.75;2.17454;69.9255;2;23.64;22.7544;-2499.42;0.0;1987.35
93;13596.8;1983.15;-288317.0;-119.948;2.18775;69.9122;2;23.88;22.754;-2499.42;0.0;1983.15
94;13569.2;1979.12;-291084.0;-121.1;2.20717;69.8928;2;24.11;22.7636;-2499.4;0.0;1979.12
95;13540.0;1974.86;-294001.0;-122.313;2.21905;69.8809;2;24.35;22.7632;-2499.49;0.0;1974.86
96;13511.2;1970.66;-296881.0;-123.511;2.23067;69.8693;2;24.59;22.7636;-2499.54;0.0;1970.66
97;13483.1;1966.57;-299686.0;-124.678;2.25465;69.8454;2;24.82;22.767;-2499.5;0.0;1966.57
98;13457.0;1962.75;-302304.0;-125.767;2.26346;69.8365;2;25.04;22.7594;-2499.41;0.0;1962.75
99;13427.8;1958.5;-305222.0;-126.981;2.29672;69.8033;2;25.28;22.7632;-2499.46;0.0;1958.5
100;13400.1;1954.46;-307989.0;-128.133;2.31863;69.7814;2;25.51;22.7582;-2499.38;0.0;1954.46
101;13373.6;1950.59;-310644.0;-129.237;2.34827;69.7517;2;25.73;22.7674;-2499.4;0.0;1950.59
102;13347.0;1946.71;-313300.0;-130.342;2.3728;69.7272;2;25.95;22.7391;-2499.59;0.0;1946.71
103;13317.8;1942.46;-316217.0;-131.556;2.39128;69.7087;2;26.19;22.7498;-2499.55;0.0;1942.46
104;13290.2;1938.42;-318985.0;-132.707;2.40821;69.6918;2;26.42;22.7548;-2499.5;0.0;1938.42
105;13263.6;1934.55;-321640.0;-133.812;2.42828;69.6717;2;26.64;22.7506;-2499.42;0.0;1934.55
106;13237.0;1930.68;-324295.0;-134.916;2.44532;69.6547;2;26.86;22.7575;-2499.47;0.0;1930.68
107;13207.9;1926.42;-327213.0;-136.13;2.45816;69.6418;2;27.1;22.7601;-2499.41;0.0;1926.42
108;13180.2;1922.39;-329980.0;-137.282;2.48603;69.614;2;27.33;22.7533;-2499.55;0.0;1922.39
109;13151.0;1918.13;-332897.0;-138.495;2.49863;69.6014;2;27.57;22.7525;-2499.52;0.0;1918.13
110;13123.3;1914.09;-335665.0;-139.647;2.52254;69.5775;2;27.8;22.7544;-2499.44;0.0;1914.09
111;13094.2;1909.84;-338582.0;-140.86;2.54873;69.5513;2;28.04;22.759;-2499.49;0.0;1909.84
112;13066.5;1905.8;-341350.0;-142.012;2.57171;69.5283;2;28.27;22.7636;-2499.45;0.0;1905.8
113;13039.9;1901.93;-344005.0;-143.116;2.59792;69.5021;2;28.49;22.7498;-2499.52;0.0;1901.93
114;13013.4;1898.06;-346661.0;-144.221;2.62193;69.4781;2;28.71;22.7571;-2499.44;0.0;1898.06
115;12984.2;1893.8;-349578.0;-145.435;2.64447;69.4555;2;28.95;22.7586;-2499.45;0.0;1893.8
116;12955.0;1889.55;-352495.0;-146.648;2.66308;69.4369;2;29.19;22.7613;-2499.51;0.0;1889.55
117;12928.9;1885.73;-355113.0;-147.738;2.69115;69.4089;2;29.41;22.7758;-2499.64;0.0;1885.73
118;12900.8;1881.64;-357918.0;-148.904;2.70956;69.3904;2;29.64;22.7663;-2499.46;0.0;1881.64
119;12872.0;1877.44;-360798.0;-150.103;2.73522;69.3648;2;29.88;22.7842;-2499.48;0.0;1877.44
120;12844.3;1873.4;-363565.0;-151.254;2.76196;69.338;2;30.11;22.7712;-2499.49;0.0;1873.4
121;12815.2;1869.15;-366483.0;-152.468;2.78377;69.3162;2;30.35;22.7708;-2499.57;0.0;1869.15
122;12788.6;1865.27;-369138.0;-153.572;2.81178;69.2882;2;30.57;22.7693;-2499.51;0.0;1865.27
123;12760.9;1861.24;-371906.0;-154.724;2.83232;69.2677;2;30.8;22.7663;-2499.39;0.0;1861.24
124;12731.8;1856.98;-374823.0;-155.937;2.8627;69.2373;2;31.04;22.7601;-2499.34;0.0;1856.98
125;12704.1;1852.94;-377590.0;-157.089;2.88266;69.2173;2;31.27;22.7555;-2499.47;0.0;1852.94
126;12675.3;1848.74;-380470.0;-158.287;2.91301;69.187;2;31.51;22.7705;-2499.42;0.0;1848.74
127;12617.3;1840.29;-386267.0;-160.699;2.9371;69.1629;2;32.0;22.764;-2499.37;0.0;1840.29
128;12585.9;1835.71;-389409.0;-162.006;2.963;69.137;2;32.25;22.7796;-2499.4;0.0;1835.71
129;12558.2;1831.67;-392176.0;-163.157;2.99353;69.1065;2;32.48;22.7728;-2499.43;0.0;1831.67
130;12531.7;1827.8;-394832.0;-164.262;3.01896;69.081;2;32.7;22.7792;-2499.46;0.0;1827.8
131;12502.5;1823.54;-397749.0;-165.475;3.04826;69.0517;2;32.94;22.7751;-2499.5;0.0;1823.54
132;12474.8;1819.51;-400517.0;-166.627;3.07539;69.0246;2;33.17;22.7735;-2499.52;0.0;1819.51
133;12448.3;1815.63;-403172.0;-167.731;3.10752;68.9925;2;33.39;22.7735;-2499.4;0.0;1815.63
134;12419.5;1811.43;-406052.0;-168.93;3.13217;68.9678;2;33.63;22.7754;-2499.43;0.0;1811.43
135;12392.9;1807.56;-408707.0;-170.034;3.16179;68.9382;2;33.85;22.7751;-2499.51;0.0;1807.56
136;12364.9;1803.47;-411512.0;-171.201;3.18956;68.9104;2;34.08;22.7827;-2499.5;0.0;1803.47
137;12338.7;1799.65;-414130.0;-172.29;3.21798;68.882;2;34.3;22.7728;-2499.61;0.0;1799.65
138;12309.5;1795.39;-417047.0;-173.504;3.24598;68.854;2;34.54;22.7827;-2499.6;0.0;1795.39
139;12281.9;1791.36;-419815.0;-174.655;3.27415;68.8259;2;34.77;22.7747;-2499.59;0.0;1791.36
140;12252.7;1787.1;-422732.0;-175.869;3.30516;68.7948;2;35.01;22.7842;-2499.57;0.0;1787.1
141;12198.4;1779.19;-428155.0;-178.125;3.33196;68.768;2;35.46;22.7946;-2499.63;0.0;1779.19
142;12169.6;1774.99;-431035.0;-179.323;3.36495;68.735;2;35.7;22.7789;-2499.56;0.0;1774.99
143;12140.5;1770.74;-433952.0;-180.537;3.39487;68.7051;2;35.94;22.7907;-2499.45;0.0;1770.74
144;12110.6;1766.37;-436944.0;-181.782;3.42782;68.6722;2;36.19;22.7842;-2499.42;0.0;1766.37
145;12082.9;1762.34;-439712.0;-182.933;3.45879;68.6412;2;36.42;22.7915;-2499.43;0.0;1762.34
146;12053.7;1758.08;-442629.0;-184.147;3.49066;68.6093;2;36.66;22.7911;-2499.49;0.0;1758.08
147;12026.0;1754.05;-445397.0;-185.298;3.52241;68.5776;2;36.89;22.7854;-2499.48;0.0;1754.05
148;11996.9;1749.79;-448314.0;-186.512;3.55479;68.5452;2;37.13;22.7984;-2499.49;0.0;1749.79
149;11966.9;1745.43;-451306.0;-187.757;3.58582;68.5142;2;37.38;22.79;-2499.42;0.0;1745.43
150;11936.6;1741.01;-454335.0;-189.017;3.61555;68.4845;2;37.63;22.8133;-2499.52;0.0;1741.01
151;11906.4;1736.59;-457365.0;-190.277;3.64877;68.4512;2;37.88;22.7999;-2499.42;0.0;1736.59
152;11876.4;1732.23;-460357.0;-191.522;3.67952;68.4205;2;38.13;22.7976;-2499.44;0.0;1732.23
153;11846.1;1727.81;-463386.0;-192.782;3.71089;68.3891;2;38.38;22.8033;-2499.52;0.0;1727.81
154;11814.7;1723.23;-466528.0;-194.089;3.74226;68.3577;2;38.64;22.8049;-2499.43;0.0;1723.23
155;11786.7;1719.13;-469333.0;-195.256;3.77564;68.3244;2;38.87;22.8049;-2499.49;0.0;1719.13
156;11757.9;1714.93;-472212.0;-196.454;3.80784;68.2922;2;39.11;22.7988;-2499.52;0.0;1714.93
157;11729.8;1710.84;-475017.0;-197.621;3.84115;68.2588;2;39.34;22.7957;-2499.5;0.0;1710.84
158;11699.9;1706.48;-478009.0;-198.866;3.8766;68.2234;2;39.59;22.7957;-2499.45;0.0;1706.48
159;11669.6;1702.06;-481039.0;-200.126;3.91077;68.1892;2;39.84;22.7984;-2499.5;0.0;1702.06
160;11640.4;1697.81;-483956.0;-201.34;3.94361;68.1564;2;40.08;22.8098;-2499.47;0.0;1697.81
161;11610.1;1693.39;-486985.0;-202.6;3.97625;68.1237;2;40.33;22.8068;-2499.57;0.0;1693.39
162;11581.3;1689.19;-489865.0;-203.798;4.01136;68.0886;2;40.57;22.8072;-2499.41;0.0;1689.19
163;11553.3;1685.1;-492670.0;-204.965;4.0476;68.0524;2;40.8;22.8045;-2499.51;0.0;1685.1
164;11523.0;1680.68;-495700.0;-206.226;4.08373;68.0163;2;41.05;22.7961;-2499.55;0.0;1680.68
165;11494.2;1676.48;-498579.0;-207.424;4.1212;67.9788;2;41.29;22.8141;-2499.58;0.0;1676.48
166;11463.9;1672.06;-501609.0;-208.684;4.15993;67.9401;2;41.54;22.8102;-2499.58;0.0;1672.06
167;11433.6;1667.64;-504638.0;-209.944;4.19824;67.9018;2;41.79;22.819;-2499.68;0.0;1667.64
168;11404.8;1663.44;-507518.0;-211.143;4.23491;67.8651;2;42.03;22.819;-2499.65;0.0;1663.44
169;11376.8;1659.35;-510323.0;-212.309;4.27371;67.8263;2;42.26;22.7976;-2499.57;0.0;1659.35
170;11348.0;1655.15;-513203.0;-213.508;4.31429;67.7857;2;42.5;22.8144;-2499.59;0.0;1655.15
171;11317.7;1650.73;-516232.0;-214.768;4.35376;67.7462;2;42.75;22.8297;-2499.55;0.0;1650.73
172;11260.8;1642.44;-521917.0;-217.133;4.39114;67.7089;2;43.22;22.8293;-2499.64;0.0;1642.44
173;11233.2;1638.4;-524685.0;-218.284;4.43071;67.6693;2;43.45;22.8133;-2499.63;0.0;1638.4
174;11204.4;1634.2;-527564.0;-219.482;4.46945;67.6305;2;43.69;22.8098;-2499.58;0.0;1634.2
175;11175.2;1629.95;-530482.0;-220.696;4.5073;67.5927;2;43.93;22.8095;-2499.57;0.0;1629.95
176;11147.5;1625.91;-533249.0;-221.847;4.54676;67.5532;2;44.16;22.8339;-2499.47;0.0;1625.91
177;11118.7;1621.71;-536129.0;-223.045;4.58449;67.5155;2;44.4;22.8198;-2499.53;0.0;1621.71
178;11088.4;1617.29;-539158.0;-224.306;4.62311;67.4769;2;44.65;22.8152;-2499.41;0.0;1617.29
179;11060.7;1613.25;-541926.0;-225.457;4.65979;67.4402;2;44.88;22.8152;-2499.5;0.0;1613.25
180;11031.6;1609.0;-544843.0;-226.671;4.69856;67.4014;2;45.12;22.8206;-2499.47;0.0;1609.0
181;11003.9;1604.96;-547611.0;-227.822;4.73633;67.3637;2;45.35;22.8209;-2499.45;0.0;1604.96
182;10972.5;1600.38;-550752.0;-229.129;4.77482;67.3252;2;45.61;22.8171;-2499.54;0.0;1600.38
183;10944.8;1596.34;-553520.0;-230.281;4.81616;67.2838;2;45.84;22.819;-2499.51;0.0;1596.34
184;10914.5;1591.93;-556549.0;-231.541;4.85356;67.2464;2;46.09;22.8228;-2499.56;0.0;1591.93
185;10885.7;1587.73;-559429.0;-232.739;4.89643;67.2036;2;46.33;22.8255;-2499.62;0.0;1587.73
186;10858.0;1583.69;-562197.0;-233.89;4.93693;67.1631;2;46.56;22.8225;-2499.45;0.0;1583.69
187;10827.7;1579.27;-565226.0;-235.151;4.9791;67.1209;2;46.81;22.8236;-2499.56;0.0;1579.27
188;10798.9;1575.07;-568106.0;-236.349;5.02031;67.0797;2;47.05;22.8324;-2499.53;0.0;1575.07
189;10768.6;1570.65;-571135.0;-237.609;5.06497;67.035;2;47.3;22.8339;-2499.53;0.0;1570.65
190;10738.4;1566.23;-574165.0;-238.87;5.10622;66.9938;2;47.55;22.8282;-2499.48;0.0;1566.23
191;10709.6;1562.03;-577045.0;-240.068;5.14686;66.9531;2;47.79;22.8236;-2499.31;0.0;1562.03
192;10681.9;1558.0;-579812.0;-241.219;5.18902;66.911;2;48.02;22.829;-2499.58;0.0;1558.0
193;10651.6;1553.58;-582842.0;-242.479;5.22889;66.8711;2;48.27;22.8443;-2499.59;0.0;1553.58
194;10620.2;1548.99;-585983.0;-243.786;5.26909;66.8309;2;48.53;22.8362;-2499.55;0.0;1548.99
195;10589.9;1544.58;-589013.0;-245.047;5.3113;66.7887;2;48.78;22.8267;-2499.49;0.0;1544.58
196;10559.6;1540.16;-592042.0;-246.307;5.35514;66.7449;2;49.03;22.8313;-2499.47;0.0;1540.16
197;10531.9;1536.12;-594810.0;-247.458;5.39546;66.7045;2;49.26;22.8305;-2499.47;0.0;1536.12
198;10501.6;1531.7;-597839.0;-248.719;5.43873;66.6613;2;49.51;22.8339;-2499.38;0.0;1531.7
199;10472.4;1527.45;-600756.0;-249.932;5.48152;66.6185;2;49.75;22.8485;-2499.51;0.0;1527.45
200;10412.2;1518.67;-606778.0;-252.437;5.52385;66.5761;2;50.25;22.8454;-2499.53;0.0;1518.67
201;10383.1;1514.41;-609695.0;-253.651;5.56555;66.5344;2;50.49;22.8507;-2499.49;0.0;1514.41
202;10352.8;1509.99;-612724.0;-254.911;5.60888;66.4911;2;50.74;22.8511;-2499.55;0.0;1509.99
203;10325.1;1505.96;-615492.0;-256.063;5.65091;66.4491;2;50.97;22.84;-2499.5;0.0;1505.96
204;10293.7;1501.37;-618633.0;-257.37;5.69032;66.4097;2;51.23;22.8443;-2499.52;0.0;1501.37
205;10265.6;1497.28;-621439.0;-258.537;5.7356;66.3644;2;51.46;22.8511;-2499.57;0.0;1497.28
206;10236.8;1493.08;-624318.0;-259.735;5.77626;66.3237;2;51.7;22.8412;-2499.61;0.0;1493.08
207;10208.8;1488.99;-627123.0;-260.902;5.82138;66.2786;2;51.93;22.8309;-2499.57;0.0;1488.99
208;10180.0;1484.79;-630003.0;-262.1;5.86659;66.2334;2;52.17;22.8435;-2499.51;0.0;1484.79
209;10151.9;1480.7;-632808.0;-263.267;5.91276;66.1872;2;52.4;22.8393;-2499.47;0.0;1480.7
210;10123.1;1476.5;-635688.0;-264.465;5.95425;66.1458;2;52.64;22.853;-2499.47;0.0;1476.5
211;10095.1;1472.41;-638493.0;-265.632;6.00131;66.0987;2;52.87;22.8504;-2499.49;0.0;1472.41
212;10065.2;1468.04;-641485.0;-266.877;6.04396;66.056;2;53.12;22.8515;-2499.52;0.0;1468.04
213;10033.7;1463.46;-644626.0;-268.184;6.0886;66.0114;2;53.38;22.8351;-2499.45;0.0;1463.46
214;10005.7;1459.37;-647431.0;-269.351;6.13412;65.9659;2;53.61;22.8439;-2499.55;0.0;1459.37
215;9975.77;1455.01;-650423.0;-270.595;6.18038;65.9196;2;53.86;22.8553;-2499.49;0.0;1455.01
216;9946.59;1450.75;-653341.0;-271.809;6.22332;65.8767;2;54.1;22.8553;-2499.54;0.0;1450.75
217;9916.67;1446.39;-656333.0;-273.054;6.27027;65.8297;2;54.35;22.8557;-2499.55;0.0;1446.39
