Time [s],Time [min],f1 [Hz],f3 [Hz],f5 [Hz],f7 [Hz],f9 [Hz],f11 [Hz],f13 [Hz],D3 [ppm],D5 [ppm],D7 [ppm],D9 [ppm],D11 [ppm],D13 [ppm]
0,0,-0.0679,0.0115,-0.0921,0.0953,-0.0375,-0.1112,-0.0018,-0.0313,0.0304,-0.0112,0.0011,0.039,0.0215
1.2987,0.021645,-0.0786,-0.0045,-0.0339,-0.0035,0.0544,0.2089,0.6179,-0.0001,-0.0107,-0.0225,0.0169,0.0086,0.0392
2.6244,0.04374,0.0419,0.0406,0.0368,-0.0191,0.0264,-0.1704,-0.4583,-0.0021,-0.0013,-0.0131,0.0144,-0.0191,0.1118
3.9688,0.066146667,0.0745,-0.0646,0.0194,-0.0779,-0.0816,0.0074,0.2187,-0.0111,-0.0038,0.0014,-0.0214,0.0395,0.0606
5.2959,0.088265,-0.2402,-0.07,0.034,0.1164,0.0358,0.0362,-0.0812,0.0048,-0.0521,-0.0011,0.0046,-0.0361,0.0325
6.6296,0.110493333,-0.0575,-0.1094,-0.057,-0.0583,-0.0098,0.3369,-0.5844,0.009,0.0027,-0.0254,0.0217,-0.0363,0.0426
7.9619,0.132698333,0.1478,-0.0525,0.0203,-0.0838,-0.0612,-0.2202,-0.243,-0.0045,-0.0149,0.0371,-0.0036,-0.0568,-0.0511
9.3047,0.155078333,0.0032,-0.0796,0.074,0.0276,-0.0308,0.0176,-0.4288,-0.0093,0.0064,0.0316,-0.0144,0.0378,0.0891
10.6299,0.177165,-0.1433,0.0138,0.1462,-0.07,0.1389,0.0501,0.1411,0.0077,0.0649,0.0009,-0.0089,0.0697,0.1504
11.9677,0.199461667,0.0325,0.0975,0.0226,-0.1239,-0.0127,-0.2388,0.5648,-0.0234,-0.0148,0.0165,-0.0096,0.0734,0.0027
13.29,0.2215,0.0419,-0.074,0.0821,-0.0111,-0.0756,0.2863,0.4718,-0.0192,-0.0221,-0.0063,0.0012,-0.0047,0.0966
14.6459,0.244098333,0.078,-0.0379,-0.0234,-0.0832,0.0121,0.1141,0.1013,-0.0005,0.0376,-0.0079,0.0036,-0.0124,0.0273
15.97,0.266166667,-0.1448,0.0431,-0.0625,0.1204,-0.0159,-0.0538,0.125,0.0072,-0.0025,0.004,0.0109,-0.0345,-0.0876
17.2962,0.28827,-0.0069,0.0172,0.0648,0.0793,-0.0284,0.0442,0.2264,-0.0209,0.0411,-0.0041,0.0171,0.0831,-0.0631
18.6505,0.310841667,0.0781,-0.0763,0.0425,0.0025,-0.0127,-0.2257,-0.1719,-0.0025,-0.0074,0.0106,-0.0237,-0.0028,-0.0887
19.9924,0.333206667,0.1053,-0.0172,-0.0551,-0.0563,-0.067,-0.1286,-0.2752,0.0159,-0.0204,-0.0083,0.0149,-0.0824,-0.3635
21.2943,0.354905,-0.1533,-0.0068,-0.045,0.0992,0.1361,-0.0647,0.317,-0.0012,-0.0008,-0.0006,-0.0228,-0.0407,0.0097
22.6284,0.37714,0.1151,0.1318,-0.0463,0.0664,-0.0828,0.0784,-0.5408,0.0209,-0.0239,0.0012,-0.0096,-0.0594,0.1958
23.9584,0.399306667,0.1811,0.097,-0.1651,-0.0384,-0.0097,0.0236,0.2425,0.0243,-0.0388,-0.0087,0.0031,-0.03,-0.0548
25.2685,0.421141667,0.0503,0.0397,0.0488,0.0289,0.0648,0.1195,-0.3804,0.0268,-0.0063,0.0222,-0.0114,0.0358,-0.094
26.586,0.4431,-0.057,0.1007,-0.0112,-0.0108,0.0573,-0.1097,0.1394,0.0093,0.0368,-0.0163,0.016,0.028,-0.0772
27.8959,0.464931667,-0.0457,-0.0451,0.0116,-0.0035,-0.0145,-0.1604,-0.4908,0.0499,0.034,-0.006,0.0217,0.0136,0.0757
29.25,0.4875,0.1568,0.004,0.0288,-0.0155,0.0435,0.1377,-0.2938,0.009,-0.0076,0.0188,-0.007,0.0803,0.021
30.5829,0.509715,0.058,0.0378,0.0156,0.0108,-0.0064,-0.0405,0.0049,-0.0021,0.0311,0.0005,-0.0417,0.1233,-0.0712
31.9182,0.53197,-0.1652,0.0561,-0.0453,0.1292,-0.0591,-0.0778,0.1935,0.0428,0.0139,0.0262,-0.0019,0.0235,0.2482
33.2793,0.554655,0.0122,0.026,-0.0024,0.0338,-0.0472,0.0075,0.0475,-0.0335,-0.012,-0.008,0.0121,0.0847,-0.0985
34.6059,0.576765,0.21,-0.0495,0.0748,0.0197,-0.0203,0.0546,-0.3266,-0.0244,-0.0364,0.0276,-0.02,0.0522,0.1241
35.93,0.598833333,0.0052,-0.1086,0.0209,-0.0901,0.0173,-0.0412,-0.7629,0.0731,0.0371,-0.0148,-0.0026,0.0451,-0.1871
37.272,0.6212,-0.1328,-0.1039,-0.0969,-0.0228,-0.0211,0.0816,-0.3746,-0.0092,0.0315,0.0072,0.0084,0.1274,0.061
38.5784,0.642973333,-0.0526,0.0148,0.0352,-0.0063,0.0185,0.2298,0.4342,0.0147,-0.0054,0.0231,-0.0071,0.0073,-0.1355
39.906,0.6651,0.1108,-0.0217,-0.0214,-0.0202,0.0203,0.2742,0.022,-0.0669,0.0408,0.0151,0.0235,-0.0011,0.0272
41.266,0.687766667,0.0838,-0.0565,-0.0586,0.0629,0.0271,-0.0127,-0.474,-0.0432,0.0377,-0.0039,-0.0051,-0.0283,0.0251
42.5764,0.709606667,-0.1437,0.0302,-0.0681,0.0569,-0.0654,0.1043,0.4694,0.0561,0.0368,0.0183,-0.0312,0.0619,0.1871
43.9299,0.732165,0.0501,-0.0616,-0.0421,0.001,-0.0425,-0.0717,0.6319,-0.009,0.0264,-0.0063,-0.0285,0.0411,-0.097
45.274,0.754566667,0.1161,0.0674,0.0775,-0.0031,0.0685,0.1594,0.0582,-0.0356,0.0185,0.0232,0.0131,-0.0029,0.0965
46.5815,0.776358333,0.0664,-0.0096,-0.0788,-0.0227,-0.02,-0.2163,-0.2737,0.0191,-0.0665,-0.009,0.0008,-0.0276,0.1558
47.912,0.798533333,-0.0792,0.0614,0.0368,0.0218,0.0502,0.1843,0.1181,0.0385,-0.0067,-0.01,-0.0274,0.084,-0.0528
49.2144,0.82024,-0.0269,0.0566,-0.0333,0.0131,0.0169,-0.2668,0.1291,0.0156,0.0066,0.0051,0.0287,-0.0594,-0.1572
50.5494,0.84249,0.1008,0.0484,0.0066,0.0201,-0.0313,-0.1378,-0.5,-0.0276,-0.0177,0.0215,-0.0317,0.0454,0.1067
51.8974,0.864956667,0.0064,-0.0838,-0.035,-0.0597,0.0398,0.2772,0.02,-0.0517,-0.0029,0.0245,-0.0303,0.0165,0.2585
53.2255,0.887091667,-0.0577,0.0118,-0.1082,-0.0007,-0.07,-0.059,0.1652,-0.0223,-0.0158,-0.0072,-0.0128,-0.0149,0.0567
54.584,0.909733333,0.0183,0.0124,-0.0009,0.0773,-0.0357,0.1613,0.0622,0.0375,0.016,-0.0018,0.0001,0.0357,0.1762
55.938,0.9323,0.1879,0.0579,-0.0866,0.0777,-0.03,-0.0243,-0.181,-0.0113,-0.0469,0.044,-0.0247,0.0478,0.033
57.2502,0.95417,0.0997,0.1326,0.0531,-0.0375,-0.0323,0.1076,0.199,-0.0103,0.0397,-0.0054,-0.0104,0.0312,-0.0043
58.4108,0.973513333,-0.0818,-0.085,-0.063,-0.0001,0.0713,0.1165,-0.2974,-0.0468,-0.006,0.0052,0.0112,0.0236,-0.0742
59.7032,0.995053333,-0.0011,0.0659,-0.0082,0.0439,-0.0456,-0.0139,0.168,-0.0105,0.0219,-0.0023,0.0053,-0.0817,0.0557
61.024,1.017066667,0.2177,0.1553,-0.0366,-0.0295,-0.0384,0.2346,-0.0549,-0.0302,-0.0097,0.0007,0.0017,-0.0126,0.1217
62.3488,1.039146667,0.0368,-0.03,-0.0543,-0.0045,0.0122,-0.0775,-0.209,0.0076,-0.0153,-0.0262,0.0139,0.082,0.0767
63.676,1.061266667,-0.1207,-0.083,-0.0401,0.0532,-0.0488,0.1718,0.2961,0.0234,-0.0269,-0.0198,-0.0145,0.0619,-0.0557
65.0368,1.083946667,0.0077,-0.07,-0.0018,-0.1314,-0.0629,-0.138,0.3145,-0.029,0.0109,-0.0104,-0.0117,0.0841,0.1608
66.3503,1.105838333,0.0806,-0.0473,0.0374,-0.0498,-0.0007,-0.2273,-0.1904,-0.0389,0.0197,-0.0396,-0.0124,0.0642,-0.1108
67.6773,1.127955,0.1096,0.0311,0.0231,-0.0236,0.0401,0.0824,-0.4043,0.0188,0.0233,0.0121,0.0095,-0.0758,0.0353
68.998,1.149966667,-0.0479,-0.0329,-0.0074,0.0404,0.004,-0.0004,0.365,-0.0118,0.0159,0.0126,-0.0056,0.0551,0.1864
70.3165,1.171941667,0.0399,0.0242,0.018,-0.0924,-0.0974,0.1915,0.378,0.0018,0.0172,-0.0129,-0.0323,0.0568,-0.0097
71.6628,1.19438,0.0841,0.1743,0.0454,-0.0504,-0.0462,0.0815,0.0068,-0.0206,0.0208,-0.0432,-0.0227,0.0011,0.1655
72.9627,1.216045,0.1065,0.0522,-0.0712,-0.0103,-0.0019,-0.1361,0.1081,-0.018,-0.0026,0.0203,0.0095,0.1036,0.2614
74.233,1.237216667,-0.1464,0.0093,0.0654,0.0081,0.0558,-0.0728,0.1912,0.0583,-0.0167,0.0239,0.0238,-0.1246,-0.2019
75.5186,1.258643333,0.0351,0.0326,0.0262,-0.0389,0.0044,0.108,-0.325,-0.0074,-0.0041,0.0247,0.0257,-0.0329,-0.171
76.8206,1.280343333,0.0491,0.0835,0.0528,-0.0225,0.1012,-0.2207,-0.4142,0.0049,0.0283,-0.006,0.0004,-0.0038,-0.0623
77.938,1.298966667,0.1289,0.0347,0.0672,0.0443,-0.0957,0.1822,-0.2793,0.0233,-0.0011,0.017,0.0037,0.0269,-0.0322
79.2907,1.321511667,-0.1107,-0.0214,-0.0361,0.06,-0.0133,-0.371,-0.0464,0.0659,0.0114,0.0003,0.0166,0.0408,0.0545
80.6168,1.343613333,-0.1742,0.0856,-0.0007,-0.0219,-0.0536,-0.1791,-0.0679,-0.0382,-0.026,0.0265,0.0161,0.1183,-0.0179
81.976,1.366266667,0.1619,0.0049,-0.0272,-0.0045,-0.0823,0.2517,-0.4796,0.0426,0.0217,-0.0295,-0.0062,-0.0613,0.1462
83.284,1.388066667,0.1229,-0.0034,-0.0587,0.0137,0.0259,-0.0924,-0.0097,-0.0452,-0.0231,-0.0248,-0.0323,0.0219,0.201
84.5744,1.409573333,-0.0797,-0.0114,0.0057,0.0731,-0.0112,0.164,0.21,-0.0014,-0.0293,-0.0161,0.0012,0.0169,0.0461
85.8926,1.431543333,-0.1203,0.0268,-0.0327,-0.0417,0.0064,0.184,-0.2033,0.0227,-0.0048,0.0267,0.0192,0.054,-0.1038
87.1938,1.45323,0.166,0.0788,-0.0221,0.0565,-0.05,-0.0621,0.5151,0.052,0.0187,-0.0269,-0.0019,0.0558,0.0684
88.4905,1.474841667,0.0018,-0.0668,-0.0283,0.0188,0.008,-0.0856,0.202,0.0312,0.0173,-0.0347,-0.0186,0.0904,0.1629
89.7972,1.49662,-0.0269,-0.0978,-0.0204,0.093,0.1181,-0.0941,-0.0913,0.0064,-0.0281,0.041,-0.0126,0.1817,-0.0106
91.0784,1.517973333,-0.0601,0.1279,0.0313,0.0454,0.0369,-0.1066,0.0183,0.0252,-0.0282,-0.0485,-0.0477,0.0843,-0.1222
92.4208,1.540346667,0.1648,-0.1169,-0.0313,0.0317,-0.1186,0.0421,-0.6678,-0.0016,-0.0027,-0.0061,0.0097,0.0412,0.2879
93.7306,1.562176667,0.1292,-0.0769,-0.0606,0.0927,0.0114,0.0628,-0.1923,-0.0373,0.0112,-0.0204,-0.0339,-0.0041,0.1096
95.0385,1.583975,-0.0161,0.0279,0.0106,0.1103,-0.0127,0.0435,-0.0151,0.0143,-0.0249,-0.0487,0.0124,0.0068,0.098
96.3404,1.605673333,-0.0547,0.011,-0.0417,0.0566,-0.0067,0.1086,0.0194,0.0081,-0.0018,-0.0347,0.0175,0.0132,0.0712
97.6404,1.62734,0.1233,0.0374,0.0556,-0.0393,-0.076,-0.1392,0.0036,-0.0538,-0.0143,-0.0456,-0.0103,0.0157,0.0207
98.9559,1.649265,0.0342,0.0474,-0.0668,0.0573,-0.0177,0.0275,0.2936,-0.0431,0.0122,0.0002,0.001,0.0249,0.0986
100.2539,1.670898333,0.1299,0.0101,0.1675,0.0072,0.0207,-0.2204,-0.285,-0.0014,-0.0279,-0.0415,-0.0056,-0.0592,-0.0791
101.5905,1.693175,-0.1592,0.0502,0.0297,0.0944,-0.0402,-0.018,0.1436,0.0065,0.0254,-0.0336,-0.0094,-0.0589,-0.163
102.8877,1.714795,0.0858,0.1072,-0.072,-0.0111,0.0332,-0.0695,-0.7877,0.0276,0.0278,-0.0127,-0.0251,-0.0918,-0.1358
104.168,1.736133333,0.0751,0.0188,0.0244,-0.0353,0.068,0.1605,-0.1647,-0.0156,0.0018,0.0219,-0.0196,0.0486,-0.0129
105.502,1.758366667,0.0154,0.0719,-0.0693,-0.0708,-0.0068,-0.114,0.0696,0.0293,0.028,0.0055,0.0026,0.0222,-0.0875
106.8186,1.78031,-0.0062,0.0897,-0.0282,-0.0117,-0.0154,0.1428,0.4766,0.0206,0.0582,-0.0106,-0.0016,0.0355,0.0779
108.1405,1.802341667,0.1243,0.0546,0.0433,-0.0044,-0.0448,0.1096,0.0492,-0.013,-0.0103,-0.0011,0.0226,0.0239,0.2273
109.4493,1.824155,0.1591,0.0801,-0.0117,-0.0997,-0.025,0.133,0.3387,0.026,0.024,0.0064,-0.0057,-0.1278,0.0955
110.7836,1.846393333,0.1424,-0.0485,-0.0376,-0.0106,0.0486,-0.0326,0.1058,-0.0205,-0.0052,-0.0195,-0.0426,0.0079,0.2196
112.0772,1.867953333,-0.0198,0.1388,0.1184,0.0765,0.0089,0.4146,-0.0106,0.0118,0.008,-0.0079,0.0037,0.0136,0.0592
113.364,1.8894,0.1115,0.1586,0.1132,-0.0004,-0.1275,0.0644,-0.1961,0.0431,-0.0294,0.0429,-0.0015,-0.0104,-0.1123
114.716,1.911933333,0.093,0.0063,0.1317,0.104,0.0214,0.1979,0.1047,0.0277,0.0503,0.0024,0.0142,0.0243,0.0437
115.999,1.933316667,0.1071,0.0941,0.0281,0.0272,0.0004,0.246,0.5198,-0.0003,0.0012,-0.0293,-0.0065,-0.0058,-0.1296
117.3104,1.955173333,0.0031,0.1944,-0.0345,0.0128,0.0284,0.0383,-0.2166,0.0483,0.0175,-0.0054,-0.0046,-0.0453,-0.0226
118.6077,1.976795,0.2669,0.2417,0.0322,0.0978,-0.0551,-0.0541,0.3471,-0.071,0.0426,0.0161,-0.0188,-0.0703,0.0264
119.9037,1.998395,0.1039,0.0078,0.0415,-0.0379,-0.0766,-0.012,-0.489,-0.0166,-0.0079,-0.0153,-0.0043,0.0541,-0.1206
121.2668,2.021113333,0.0954,0.0333,0.0155,0.0439,0.0051,0.1643,0.0784,0.01,-0.0126,0.0247,-0.0192,-0.0459,0.1208
122.4925,2.041541667,-0.0093,-0.0854,-0.0703,0.0809,0.0408,0.0325,0.5392,0.0108,0.0088,-0.012,-0.0172,0.0287,-0.027
123.5072,2.058453333,0.0782,0.0399,0.0029,-0.0538,0.0247,-0.031,-0.0167,-0.009,0.0276,-0.0217,-0.0157,0.0873,-0.0261
124.708,2.078466667,0.1778,-0.0435,0.0776,0.0397,0.0054,0.1308,0.2262,-0.0283,0.0095,-0.0172,0.0177,0.0026,0.0929
126.008,2.100133333,0.1831,0.1467,0.0645,-0.0192,-0.0202,0.0648,-0.021,-0.0204,-0.0132,-0.0028,-0.0088,0.0664,-0.0029
127.3293,2.122155,-0.0798,-0.0842,0.0256,0.0625,0.1034,0.0215,0.0822,0.0331,0.0213,-0.0366,-0.0289,0.0581,0.168
128.616,2.1436,0.0728,0.0378,0.062,-0.0007,-0.0973,0.1706,0.4283,0.0377,0.0176,-0.051,-0.0196,0.011,-0.1484
129.9288,2.16548,0.0315,-0.0369,0.0793,0.0435,0.0656,-0.1375,0.0914,-0.0482,0.0155,-0.0042,0.0055,0.1336,-0.1524
131.2546,2.187576667,0.1252,0.069,0.0208,0.1465,0.0057,0.2405,-0.1552,-0.0788,-0.0672,0.0288,0.0013,0.0583,-0.1135
132.5406,2.20901,0.0194,0.0018,-0.1093,0.1203,0.0092,0.0131,0.4262,0.0343,0.0167,0.0189,-0.0191,0.0176,0.0918
133.9005,2.231675,0.0732,-0.0178,-0.0623,-0.0523,-0.0373,0.0306,0.0954,0.0017,-0.0217,-0.0103,0.0024,-0.0155,-0.1997
135.194,2.253233333,0.0982,0.0422,0.0393,0.0175,-0.0308,0.0521,0.0648,-0.0339,-0.0172,-0.0114,-0.014,-0.0491,0.0131
136.5199,2.275331667,0.1361,0.0798,0.0915,0.0097,-0.0336,-0.0037,0.0298,0.0562,0.0047,0.0221,-0.0299,-0.0548,0.0245
137.8408,2.297346667,-0.0947,0.0091,-0.0415,-0.0796,0.0688,-0.1617,-0.3567,-0.0076,-0.0206,-0.0082,0.0068,-0.0981,-0.0714
139.1305,2.318841667,0.0147,0.0259,0.0165,0.0119,0.0303,-0.1902,0.3977,0.0085,-0.012,-0.0234,-0.0161,0.0477,-0.1828
140.4547,2.340911667,0.1372,0.0399,0.1417,-0.0558,-0.012,0.2082,0.1732,0.0065,0.0086,-0.001,-0.0261,0.0298,-0.0326
141.7546,2.362576667,0.1101,-0.0032,0.0065,-0.1029,0.0158,0.1502,0.2418,-0.0309,-0.0356,-0.0027,-0.0101,-0.1176,0.0107
143.076,2.3846,0.0423,-0.0065,-0.0185,0.063,0.0644,-0.0213,-0.0346,0.0329,0.0273,0.0067,0.0204,0.0318,0.0785
144.2557,2.404261667,-0.1139,-0.0311,-0.0464,0.1241,0.0224,0.2523,0.1624,0.0103,0.0348,0.0213,0.0367,-0.048,0.0281
145.3825,2.423041667,0.146,-0.0442,0.0917,-0.0447,-0.0161,0.2857,-0.0632,-0.0907,-0.0065,-0.0079,0.0053,0.0318,0.2076
146.6248,2.443746667,0.144,0.0452,-0.0341,-0.0506,-0.0469,0.0088,-0.2128,0.0213,-0.0222,-0.0251,-0.0237,-0.0778,-0.131
147.8988,2.46498,0.026,0.0609,-0.047,-0.0302,-0.0278,0.2857,0.1736,0.0379,0.0126,-0.0214,-0.0622,0.0589,0.0366
149.1742,2.486236667,0.034,-0.0362,0.0584,0.0987,0.1043,0.4642,0.4894,0.0187,-0.0181,-0.0086,-0.0048,-0.1247,-0.1344
150.514,2.508566667,0.147,-0.0418,0.1136,0.0266,-0.0923,0.2037,0.1102,0.014,0.004,-0.0587,0.0041,0.0682,0.0494
151.8066,2.53011,0.1311,0.1855,0.0869,-0.0133,0.0145,0.0583,-0.0571,0.0336,0.0432,-0.0028,-0.0063,-0.0413,0.098
153.1047,2.551745,0.1805,0.0863,-0.0314,0.0669,-0.0035,0.1642,-0.597,0.0387,-0.0171,-0.0355,-0.0188,-0.068,-0.1611
154.4126,2.573543333,-0.0776,0.1322,-0.0128,0.1075,-0.019,0.1787,0.3549,-0.0387,-0.0193,-0.0332,0.0045,-0.039,0.1051
155.7045,2.595075,0.1461,0.0351,-0.0409,-0.0229,-0.03,-0.136,-0.4928,-0.0169,0.0096,-0.0061,0.0021,0.0307,0.0652
157.0199,2.616998333,0.1652,-0.0529,0.1285,0.0432,0.0633,0.0837,-0.11,0.0185,0.0042,-0.0059,-0.0002,0.0221,0.3519
158.3045,2.638408333,0.0553,0.2034,0.0146,0.0081,0.0359,0.1076,0.169,0.0249,-0.0028,-0.0121,-0.0013,0.0817,0.0481
159.6148,2.660246667,0.1581,0.0465,0.0349,0.067,0.0023,0.0714,0.0513,0.0589,-0.0071,-0.014,0.0109,-0.1061,0.2449
160.8744,2.68124,0.1212,-0.0097,-0.0523,0.033,-0.0735,0.0739,0.0363,0.0122,-0.0078,0.0052,-0.015,-0.0921,0.0632
162.1709,2.702848333,0.0525,0.2074,-0.0026,0.0464,-0.0709,0.015,-0.1302,0.0527,-0.0126,0.0093,-0.0202,0.0305,0.0449
163.4025,2.723375,-0.0007,0.0164,0.0746,0.0751,-0.0872,0.0818,0.0326,0.0257,0.0062,0.0265,-0.0074,-0.1214,0.036
164.7369,2.745615,0.0667,0.0109,-0.1289,0.0764,0.0585,0.0292,-0.4763,-0.033,-0.0282,-0.0114,0.0037,0.1105,0.117
166.0103,2.766838333,0.1329,0.1232,0.0945,-0.039,-0.0424,0.0141,-0.9736,-0.0054,0.031,-0.0161,-0.0211,0.0813,-0.0176
167.2861,2.788101667,0.1842,0.0319,-0.0527,0.0234,0.1161,0.155,0.2392,-0.0006,0.0147,0.0178,0.0188,0.0189,0.2474
168.5596,2.809326667,0.2489,0.1252,-0.0351,0.0753,-0.0129,0.2347,-0.2105,0.0093,-0.002,-0.013,-0.0303,-0.0395,-0.09
169.8459,2.830765,-0.0082,-0.0094,0.0182,0.0075,0.0257,-0.1157,0.1312,0.0031,-0.0227,-0.0298,-0.0061,-0.062,0.1422
171.132,2.8522,0.1053,0.1512,0.0353,0.096,0.0528,-0.0243,0.2344,-0.023,-0.0097,-0.0257,-0.0087,0.0443,-0.0022
172.43,2.873833333,0.1704,0.0766,0.1579,0.0815,-0.1495,0.0309,0.6268,-0.0026,-0.003,-0.0147,-0.0197,-0.0225,0.0005
173.7264,2.89544,0.1873,0.0614,-0.0465,0.0872,0.0071,-0.0525,-0.1084,-0.0043,-0.0042,-0.054,-0.0346,0.0644,-0.1344
175.008,2.9168,-0.0299,0.0804,0.0512,0.0846,0.0488,-0.0867,0.662,0.031,-0.011,-0.0454,-0.025,0.0454,0.1004
176.26,2.937666667,0.016,0.0643,-0.0484,0.0132,0.0595,0.0233,-0.1434,0.0299,-0.0372,-0.0226,0.0095,-0.0372,0.2468
177.5424,2.95904,0.1703,0.0396,0.0255,0.0434,-0.0041,-0.1496,-0.0095,-0.0229,-0.06,-0.0106,-0.0337,-0.0315,-0.1188
178.8833,2.981388333,0.2192,0.1694,-0.1071,0.0249,0.0318,0.2218,-0.3733,-0.0511,-0.0573,-0.0051,-0.0042,-0.0199,-0.0086
180.1577,3.002628333,0.0619,-0.0061,0.0826,0.0788,0.0803,0.0483,-0.247,0.0426,0.0143,-0.0045,-0.0369,0.0959,-0.1032
181.4723,3.024538333,-0.0876,0.0928,-0.0248,0.0244,0.0223,0.1757,0.0372,0.0264,-0.003,-0.0205,-0.0107,0.0928,0.2686
182.7719,3.046198333,0.1141,-0.071,0.0148,0.0074,0.007,0.473,0.114,0.0136,0.0292,-0.0231,-0.0361,-0.0302,0.127
184.0834,3.068056667,0.1647,0.1395,-0.0173,0.0672,0.0184,0.1361,-0.4437,-0.0293,0.0099,-0.0143,-0.023,0.0174,-0.0467
185.3846,3.089743333,-0.0358,0.1234,0.0488,0.0978,0.1079,0.2067,0.2299,-0.0294,-0.0359,-0.0302,0.0016,-0.0715,-0.1489
186.6434,3.110723333,-0.0612,0.1189,0.0536,-0.0721,-0.0786,0.0846,0.4669,0.009,-0.0112,-0.0266,-0.0061,-0.0221,0.1308
187.9568,3.132613333,0.2131,0.1097,0.0224,0.043,-0.0744,0.0406,0.287,-0.0156,0.0226,-0.0352,-0.0091,-0.0885,0.0985
189.2365,3.153941667,0.2783,-0.007,-0.0381,-0.0104,0.0437,0.0397,-0.4254,0.0431,0.0088,-0.0021,-0.0091,-0.1005,0.1585
190.5718,3.176196667,-0.0005,0.0228,0.0344,0.0567,0.0442,0.1266,-0.1474,-0.0234,-0.012,-0.0107,-0.0227,0.0943,-0.1871
191.8541,3.197568333,-0.0048,0.0664,-0.0118,0.0638,-0.0369,0.1207,0.1589,0.0343,-0.015,-0.0594,0.0046,0.0032,0.0523
193.156,3.219266667,0.1571,0.1298,-0.0853,-0.0961,-0.0035,0.1303,-0.2563,0.0295,-0.0038,0.0257,-0.0001,-0.0394,-0.0782
194.3587,3.239311667,0.191,0.1405,0.0505,0.0746,-0.0093,0.051,0.6342,0.0166,-0.0063,-0.043,-0.0073,0.0001,0.1094
195.688,3.261466667,0.1252,0.0977,0.0658,-0.0227,0.1391,-0.1622,-0.236,0.0659,-0.0039,0.0053,-0.0168,-0.025,-0.0729
197.0208,3.28368,0.0234,0.0073,0.0243,0.0547,0.0574,0.1123,0.0301,0.0765,-0.0433,0.0081,0.0026,-0.0973,-0.0579
198.3038,3.305063333,0.048,0.116,0.0226,0.0412,-0.0445,0.0911,0.0835,0.0204,-0.01,-0.0249,0.0172,-0.0587,0.2371
199.632,3.3272,0.1557,-0.0455,0.0467,0.0261,-0.0146,0.0358,-0.1476,0.0037,-0.0143,-0.0359,-0.0066,-0.0121,0.1845
200.9348,3.348913333,0.0149,0.1223,0.1179,0.0004,0.1536,0.089,0.0287,-0.0295,0.0189,0.0213,-0.0064,0.0103,0.3178
202.2477,3.370795,-0.017,0.0225,0.0664,-0.0717,0.003,-0.0537,-0.1459,0.0137,-0.0355,0.0042,-0.0254,-0.0805,-0.107
203.5468,3.392446667,0.1362,0.0595,0.0121,0.0012,0.0311,-0.1497,-0.0511,0.0226,0.0231,-0.0022,-0.0062,0.0153,0.0796
204.796,3.413266667,0.1787,0.1184,-0.0317,-0.0457,-0.0778,-0.0533,0.3359,-0.0006,-0.0495,0.0079,-0.0183,-0.1082,-0.1216
206.1124,3.435206667,0.0731,0.1448,-0.0271,0.0682,0.0918,-0.0986,-0.3044,-0.0039,0.0323,-0.0139,-0.0132,0.052,0.0155
207.4028,3.456713333,0.0815,0.0092,0.0475,0.0822,-0.0365,0.1031,0.2556,0.0055,0.0452,-0.0015,0.006,-0.0309,-0.0118
208.7455,3.479091667,0.0669,0.0785,0.1239,-0.0118,-0.0324,0.1053,-0.426,-0.0143,0.0609,0.0314,-0.0286,0.0183,-0.1584
210.0445,3.500741667,0.2513,-0.0201,0.026,0.062,-0.0285,0.0704,-0.0206,-0.0315,0.0416,0.0184,-0.0216,0.0691,0.0052
211.337,3.522283333,0.0853,0.0796,0.055,-0.0326,0.0714,0.0609,-0.1156,0.0077,0.0026,-0.0131,-0.0208,-0.0347,0.0756
212.6468,3.544113333,0.1313,-0.0094,-0.095,0.1189,0.0466,0.2322,-0.2678,-0.027,0.0188,0.002,-0.0366,-0.086,-0.0585
213.938,3.565633333,0.111,0.0336,-0.0691,-0.0584,-0.0621,-0.0906,-0.3566,-0.0221,0.012,-0.004,-0.0202,-0.003,0.2117
215.2808,3.588013333,0.1101,0.1446,0.0379,0.1229,-0.1174,-0.0074,-0.2298,-0.0065,0.0555,-0.0313,-0.0142,0.1468,0.2933
216.5238,3.60873,0.17,0.0293,-0.0523,0.0308,0.1004,-0.0267,-0.0979,0.0446,-0.0072,-0.0145,-0.0206,-0.0059,0.1699
217.8281,3.630468333,0.0514,0.0304,0.0597,0.1473,0.0262,-0.0291,-0.184,0.013,0.0326,-0.0117,-0.0025,-0.0876,-0.0608
219.0966,3.65161,0.2502,0.1828,0.0201,0.0441,0.036,0.0343,0.2319,-0.0266,-0.0423,0.0038,0.0166,-0.0153,-0.003
220.4179,3.673631667,-0.0075,0.1673,0.0078,-0.0033,0.024,-0.1297,0.5821,-0.0006,-0.0014,0.0063,-0.0298,-0.0356,0.2022
221.7221,3.695368333,0.1891,0.0976,0.1005,0.04,-0.077,-0.0622,0.0254,-0.0328,-0.0011,0.02,-0.0077,0.0876,0.1118
223.0215,3.717025,-0.0619,-0.1382,0.0011,0.0823,0.0538,0.2344,-0.4611,0.0041,0.0261,-0.03,-0.0113,0.1294,-0.0346
